,CustomerID,Frequency,Sold,Days,Cluster
0,12347.0,182,4310.0,1,2
1,12348.0,31,1797.24,74,2
2,12349.0,73,1757.55,18,2
3,12350.0,17,334.4,309,0
4,12352.0,95,1545.41,35,0
5,12353.0,4,89.0,203,0
6,12354.0,58,1079.4,231,0
7,12355.0,13,459.4,213,0
8,12356.0,59,2811.43,22,2
9,12357.0,131,6207.67,32,1
10,12358.0,19,1168.06,1,0
11,12359.0,254,6245.53,7,1
12,12360.0,129,2662.06,51,2
13,12361.0,10,189.9,286,0
14,12362.0,274,5154.58,2,2
15,12363.0,23,552.0,109,0
16,12364.0,85,1313.1,7,0
17,12365.0,23,320.69,290,0
18,12367.0,11,168.9,3,0
19,12370.0,167,3545.69,50,2
20,12371.0,63,1887.96,44,2
21,12372.0,52,1298.04,71,0
22,12373.0,14,364.6,310,0
23,12374.0,33,742.9300000000001,24,0
24,12375.0,18,455.42,2,0
25,12377.0,77,1628.12,314,0
26,12378.0,219,4008.62,129,2
27,12379.0,41,850.29,81,0
28,12380.0,105,2720.56,21,2
29,12381.0,91,1803.96,4,2
30,12383.0,100,1839.31,184,2
31,12384.0,30,566.16,28,0
32,12386.0,10,401.9,337,0
33,12388.0,100,2780.66,15,2
34,12390.0,32,549.84,79,0
35,12391.0,100,460.89,21,0
36,12393.0,64,1582.6000000000001,71,0
37,12394.0,27,1272.48,63,0
38,12395.0,159,2998.28,15,2
39,12397.0,126,2409.9,35,2
40,12398.0,85,1635.6599999999999,45,0
41,12399.0,59,1108.65,118,0
42,12401.0,5,84.3,302,0
43,12402.0,11,225.6,322,0
44,12403.0,6,409.7,49,0
45,12405.0,54,1710.39,148,0
46,12406.0,108,3280.75,21,2
47,12407.0,77,1708.1200000000001,49,0
48,12408.0,113,2842.57,32,2
49,12409.0,114,11056.93,78,1
50,12410.0,28,681.0799999999999,300,0
51,12412.0,61,1226.88,74,0
52,12413.0,40,694.15,66,0
53,12414.0,18,562.41,216,0
55,12417.0,198,3578.8,2,2
56,12418.0,34,668.58,112,0
57,12420.0,29,600.39,63,0
58,12421.0,46,806.27,15,0
59,12422.0,39,803.5600000000001,95,0
60,12423.0,126,1849.11,0,2
61,12424.0,30,1760.96,162,2
62,12425.0,36,777.2,77,0
63,12426.0,30,582.73,194,0
64,12427.0,35,708.37,11,0
65,12428.0,300,7877.2,25,1
66,12429.0,97,3750.4,8,2
67,12430.0,11,256.4,42,0
68,12431.0,240,6416.39,35,1
69,12432.0,108,5059.32,42,2
71,12434.0,54,765.19,84,0
72,12435.0,36,7829.89,79,1
73,12436.0,16,509.01,99,0
74,12437.0,201,4896.66,1,2
75,12438.0,98,2906.85,13,2
76,12441.0,11,173.55,366,0
77,12442.0,12,172.06,2,0
78,12444.0,177,5005.46,20,2
79,12445.0,4,133.4,21,0
80,12446.0,58,1002.3100000000001,57,0
81,12447.0,26,476.49,242,0
82,12448.0,22,449.45,43,0
83,12449.0,191,4067.29,21,2
84,12450.0,8,197.88,155,0
85,12451.0,355,8933.52,10,1
86,12452.0,23,428.57,16,0
87,12453.0,43,707.09,133,0
88,12454.0,30,5.684341886080802e-14,52,0
89,12455.0,90,2466.86,72,2
90,12456.0,129,3153.89,43,2
91,12457.0,68,1917.78,57,2
92,12458.0,38,947.4,70,0
93,12461.0,35,826.88,93,0
94,12462.0,72,1124.01,1,0
95,12463.0,88,1303.63,45,0
96,12464.0,29,1212.05,9,0
97,12465.0,51,733.89,7,0
98,12468.0,40,724.0400000000001,142,0
100,12472.0,391,6229.48,30,1
101,12473.0,179,2848.23,28,2
102,12474.0,457,7116.47,16,1
103,12475.0,36,723.38,53,0
104,12476.0,264,6546.58,0,1
106,12478.0,36,680.99,3,0
107,12479.0,35,477.3,3,0
108,12480.0,154,3281.63,27,2
109,12481.0,218,5590.86,22,1
110,12483.0,81,2327.13,16,2
111,12484.0,350,4495.27,32,2
112,12488.0,55,1298.66,9,0
113,12489.0,15,334.93,335,0
114,12490.0,245,5417.93,4,1
115,12491.0,26,460.40000000000003,38,0
116,12492.0,20,263.21000000000004,62,0
117,12493.0,23,416.79,165,0
118,12494.0,84,1139.3500000000001,9,0
119,12497.0,14,1043.1,81,0
120,12498.0,23,403.70000000000005,20,0
121,12500.0,65,4206.27,22,2
122,12501.0,160,2089.68,314,2
123,12502.0,147,3723.87,95,2
124,12504.0,15,114.0,17,0
125,12506.0,23,73.5,232,0
126,12507.0,23,1258.06,133,0
127,12508.0,69,398.27,25,0
128,12509.0,7,176.5,283,0
129,12510.0,33,982.5699999999999,142,0
130,12512.0,34,138.03,65,0
131,12513.0,36,586.79,84,0
132,12514.0,51,1017.68,266,0
133,12515.0,16,383.7,352,0
134,12516.0,26,1312.06,77,0
135,12517.0,286,2464.89,27,2
136,12518.0,124,2056.89,0,2
137,12519.0,18,340.84,63,0
138,12520.0,155,2582.51,78,2
139,12521.0,38,599.68,142,0
140,12522.0,12,192.72,38,0
141,12523.0,110,1745.57,1,2
142,12524.0,144,4485.72,8,2
143,12526.0,71,1316.66,0,0
144,12527.0,18,348.71000000000004,81,0
145,12528.0,95,1922.28,8,2
146,12530.0,68,1623.63,59,0
147,12531.0,17,125.22,14,0
148,12532.0,16,349.83000000000004,29,0
149,12534.0,63,1089.18,130,0
150,12535.0,34,716.35,91,0
151,12536.0,273,4106.82,7,2
152,12538.0,21,363.95,28,0
153,12539.0,274,3852.5,21,2
155,12541.0,52,981.18,29,0
156,12544.0,20,355.7,29,0
157,12545.0,50,1000.39,74,0
158,12546.0,70,1141.5,46,0
159,12547.0,8,207.79999999999998,197,0
160,12548.0,5,95.19999999999999,165,0
161,12550.0,57,964.83,78,0
162,12551.0,10,168.0,357,0
163,12552.0,20,437.82,38,0
164,12553.0,196,3652.25,7,2
165,12556.0,121,603.71,49,0
166,12557.0,33,11990.960000000001,15,1
167,12558.0,22,1.0658141036401503e-14,1,0
168,12559.0,22,536.21,310,0
169,12560.0,111,2101.39,4,2
170,12561.0,16,238.85,302,0
171,12562.0,168,3781.7400000000002,7,2
172,12564.0,21,456.9,260,0
173,12565.0,10,131.17,281,0
174,12566.0,20,346.7,72,0
175,12567.0,463,9114.94,22,1
176,12569.0,191,4064.9900000000002,1,2
177,12571.0,34,519.61,39,0
178,12572.0,62,1004.72,8,0
179,12573.0,28,160.54000000000002,226,0
180,12574.0,11,218.45,315,0
181,12576.0,89,1306.98,35,0
182,12577.0,148,595.4,34,0
183,12578.0,120,2753.36,20,2
184,12579.0,31,410.72,72,0
185,12580.0,24,415.7,246,0
186,12581.0,15,197.71,39,0
187,12582.0,22,511.36,238,0
188,12583.0,251,7187.34,2,1
189,12584.0,126,1893.95,3,2
190,12585.0,97,1982.81,233,2
191,12586.0,12,179.94000000000003,16,0
192,12587.0,4,144.0,7,0
193,12588.0,10,214.89999999999998,38,0
194,12589.0,35,646.68,28,0
195,12590.0,70,9861.38,189,1
196,12591.0,26,452.84999999999997,316,0
197,12592.0,18,437.6,91,0
198,12593.0,21,418.09999999999997,108,0
199,12594.0,119,3320.2200000000003,37,2
200,12596.0,27,618.27,50,0
201,12597.0,214,3683.13,18,2
202,12598.0,133,3002.68,9,2
203,12599.0,62,1032.58,28,0
204,12600.0,65,2581.04,28,2
205,12601.0,29,569.5600000000001,189,0
206,12602.0,12,153.12,58,0
207,12603.0,3,739.1999999999999,21,0
208,12604.0,16,254.18,78,0
209,12607.0,202,3.552713678800501e-15,57,0
210,12609.0,60,1126.85,77,0
211,12610.0,111,2057.99,22,2
212,12611.0,65,1193.32,51,0
213,12612.0,21,643.59,57,0
214,12613.0,163,3218.98,30,2
215,12614.0,20,315.6,277,0
216,12615.0,105,2291.19,1,2
217,12616.0,36,657.25,84,0
218,12617.0,42,355.53,28,0
219,12618.0,11,177.31,21,0
220,12619.0,95,3214.81,15,2
221,12620.0,92,1339.41,14,0
223,12622.0,11,180.1,231,0
224,12623.0,18,305.1,275,0
225,12624.0,38,641.13,105,0
226,12625.0,91,2614.32,211,2
227,12626.0,307,6388.35,22,1
228,12627.0,230,4478.53,10,2
229,12628.0,43,769.61,3,0
230,12630.0,64,1270.88,9,0
231,12631.0,31,640.5,56,0
232,12633.0,103,2140.63,58,2
233,12635.0,101,1689.18,89,0
234,12637.0,394,5953.25,66,1
235,12638.0,39,671.69,32,0
236,12639.0,22,486.1,238,0
237,12640.0,53,1174.58,23,0
238,12641.0,10,185.9,114,0
239,12642.0,47,1013.26,24,0
240,12643.0,24,3344.64,127,2
241,12644.0,31,477.91,129,0
242,12645.0,74,1755.38,33,2
243,12646.0,45,1346.97,4,0
244,12647.0,128,3669.92,21,2
245,12648.0,21,318.05,154,0
246,12649.0,33,603.71,106,0
247,12650.0,20,314.44,2,0
248,12651.0,9,114.0,334,0
249,12652.0,51,914.53,321,0
250,12653.0,43,2209.85,148,2
251,12654.0,38,601.98,10,0
252,12656.0,130,3982.72,16,2
253,12657.0,56,1152.06,10,0
254,12658.0,36,686.05,18,0
255,12659.0,5,91.68,29,0
256,12660.0,13,245.1,10,0
257,12662.0,232,3817.08,0,2
258,12664.0,38,4863.88,7,2
259,12665.0,4,61.75,324,0
260,12667.0,33,620.13,57,0
261,12668.0,168,3743.18,6,2
262,12669.0,102,1607.73,150,0
263,12670.0,94,2986.15,9,2
264,12672.0,10,225.89999999999998,329,0
265,12673.0,42,610.52,4,0
266,12674.0,91,1919.31,11,2
267,12676.0,45,1331.39,24,0
269,12679.0,56,1058.67,51,0
270,12680.0,52,862.81,0,0
272,12682.0,525,12288.22,3,1
273,12683.0,362,8221.09,3,1
274,12684.0,105,2283.63,7,2
275,12685.0,157,2863.08,27,2
276,12686.0,7,89.14,371,0
277,12688.0,171,4873.8099999999995,113,2
278,12689.0,72,1247.61,25,0
279,12690.0,16,389.01,205,0
280,12691.0,32,1035.8,27,0
281,12693.0,41,830.96,120,0
282,12694.0,37,869.67,69,0
283,12695.0,27,582.1,6,0
284,12697.0,43,939.02,20,0
285,12700.0,270,4867.99,7,2
286,12701.0,53,797.71,79,0
287,12702.0,12,219.0,19,0
288,12703.0,22,274.7,63,0
289,12704.0,90,2220.84,6,2
290,12705.0,348,6814.24,14,1
291,12707.0,33,603.42,291,0
292,12708.0,174,2616.32,29,2
293,12709.0,257,9294.1,2,1
294,12710.0,79,1130.57,96,0
295,12712.0,142,4241.63,22,2
296,12713.0,38,848.55,0,0
297,12714.0,259,4708.86,8,2
298,12715.0,21,353.86,105,0
299,12716.0,69,1053.49,3,0
300,12717.0,56,980.98,150,0
301,12718.0,19,238.25,70,0
302,12719.0,42,608.1,4,0
303,12720.0,359,5713.28,2,1
304,12721.0,164,2628.98,31,2
305,12722.0,57,904.33,84,0
306,12723.0,69,725.07,3,0
307,12724.0,53,1031.41,4,0
308,12725.0,24,427.8,370,0
309,12726.0,124,2609.1,27,2
310,12727.0,141,3947.7,10,2
311,12728.0,46,836.33,70,0
312,12729.0,26,453.01,113,0
314,12732.0,12,236.26000000000002,179,0
315,12733.0,22,383.95,233,0
316,12734.0,4,110.39999999999999,352,0
317,12735.0,43,779.5699999999999,314,0
318,12736.0,4,234.0,332,0
319,12738.0,11,155.35,371,0
320,12739.0,38,1013.04,77,0
321,12740.0,27,427.6,63,0
322,12743.0,134,546.43,133,0
323,12744.0,229,9120.39,51,1
324,12747.0,103,4196.01,1,2
326,12749.0,231,3868.2,3,2
327,12750.0,15,275.88,128,0
328,12752.0,53,4366.78,80,2
330,12754.0,65,2949.12,235,2
331,12755.0,6,2203.2,249,2
332,12756.0,4,112.07999999999998,86,0
333,12757.0,377,4227.7,15,2
334,12758.0,97,2791.59,116,2
335,12759.0,95,1531.44,51,0
336,12762.0,69,1898.52,7,2
337,12763.0,18,494.08,137,0
338,12764.0,45,1693.88,316,0
339,12766.0,310,6989.63,3,1
340,12769.0,32,1143.6,238,0
341,12770.0,12,1351.45,210,0
342,12772.0,55,892.47,59,0
343,12775.0,67,1351.24,16,0
344,12778.0,51,804.23,19,0
345,12779.0,159,3868.7,20,2
346,12781.0,30,707.72,20,0
347,12782.0,107,2273.32,4,2
348,12783.0,86,1603.87,1,0
349,12784.0,59,574.42,8,0
350,12785.0,15,305.71,2,0
351,12787.0,20,463.66,9,0
352,12789.0,4,91.85,64,0
353,12790.0,21,324.92,191,0
354,12791.0,2,192.60000000000002,373,0
355,12792.0,25,400.53999999999996,256,0
356,12793.0,24,545.48,334,0
357,12794.0,45,860.41,52,0
358,12795.0,14,430.48,18,0
359,12797.0,17,194.18,359,0
360,12798.0,8,6977.04,9,1
361,12802.0,26,412.58,183,0
362,12808.0,28,483.65000000000003,36,0
363,12809.0,26,484.36,167,0
364,12811.0,31,514.85,260,0
365,12812.0,15,229.64000000000001,44,0
366,12814.0,2,125.92,101,0
367,12815.0,47,1063.46,147,0
368,12816.0,29,572.2,95,0
369,12817.0,4,166.04,280,0
370,12818.0,16,1517.88,177,0
371,12820.0,59,942.34,2,0
372,12821.0,6,92.72,213,0
373,12822.0,47,918.98,70,0
374,12823.0,5,1759.5,74,2
375,12824.0,25,397.12,59,0
376,12826.0,94,1468.1200000000001,2,0
377,12827.0,25,430.15000000000003,5,0
378,12828.0,56,1018.71,2,0
379,12829.0,12,253.05,321,0
380,12830.0,39,6748.4,37,1
381,12831.0,9,215.05,261,0
382,12832.0,27,383.03,31,0
383,12833.0,24,417.38,144,0
384,12834.0,18,312.38,282,0
385,12836.0,175,2612.86,58,2
386,12837.0,12,134.1,172,0
387,12838.0,123,683.13,33,0
388,12839.0,316,5583.62,2,1
389,12840.0,116,2714.27,143,2
390,12841.0,439,3876.4,4,2
391,12842.0,34,1118.99,69,0
392,12843.0,108,1680.76,65,0
393,12844.0,52,325.96000000000004,28,0
394,12845.0,27,354.09,266,0
395,12847.0,91,871.54,21,0
396,12849.0,51,1050.8899999999999,30,0
397,12851.0,50,135.18,96,0
398,12852.0,20,299.75,289,0
399,12853.0,84,1881.7,107,2
400,12854.0,115,1289.15,78,0
401,12855.0,3,38.1,372,0
402,12856.0,317,2162.68,7,2
403,12857.0,46,1106.4,210,0
404,12863.0,6,504.2,51,0
405,12864.0,3,147.12,137,0
406,12865.0,96,1548.07,25,0
407,12866.0,26,559.12,282,0
408,12867.0,551,3986.22,25,2
409,12868.0,107,1607.0600000000002,185,0
410,12871.0,11,380.64,83,0
411,12872.0,66,599.97,326,0
412,12873.0,4,374.0,281,0
413,12875.0,2,343.2300000000001,142,0
414,12876.0,85,2218.02,57,2
415,12877.0,154,1535.77,3,0
416,12878.0,49,841.64,17,0
417,12879.0,12,552.5699999999999,44,0
418,12881.0,7,298.0,275,0
419,12882.0,13,1463.04,8,0
420,12883.0,42,703.47,24,0
421,12884.0,7,309.05,87,0
422,12885.0,72,1158.27,62,0
423,12886.0,86,1351.09,67,0
424,12888.0,7,313.77,213,0
425,12890.0,82,380.46999999999997,23,0
426,12891.0,3,331.0,185,0
427,12893.0,34,188.14,30,0
428,12895.0,24,347.3,41,0
429,12897.0,4,216.5,204,0
431,12902.0,10,138.68,264,0
432,12904.0,72,509.58,17,0
433,12906.0,63,2919.81,11,2
434,12908.0,4,246.0,58,0
435,12909.0,96,2128.83,39,2
436,12910.0,75,3075.04,22,2
437,12912.0,24,1662.3,2,0
438,12913.0,50,2483.63,4,2
439,12915.0,22,363.65,148,0
440,12916.0,109,2982.35,138,2
441,12917.0,2,594.0,127,0
442,12919.0,52,1301.44,7,0
443,12920.0,28,164.23,16,0
445,12922.0,28,405.38,160,0
446,12923.0,29,176.97,63,0
447,12924.0,31,929.95,87,0
448,12925.0,45,694.05,4,0
449,12928.0,84,2062.7000000000003,34,2
450,12929.0,9,105.1,121,0
451,12930.0,27,409.9,77,0
453,12933.0,107,606.28,23,0
454,12935.0,130,2156.45,1,2
455,12936.0,63,1012.9,16,0
456,12937.0,120,1504.27,14,0
457,12938.0,9,114.14,25,0
458,12939.0,47,11581.8,63,1
459,12940.0,103,876.29,45,0
460,12942.0,75,683.9,130,0
461,12944.0,30,604.51,35,0
462,12945.0,23,462.95,287,0
463,12947.0,103,1407.29,143,0
464,12948.0,118,2053.7,15,2
465,12949.0,219,4143.02,30,2
466,12950.0,23,1843.0,1,2
467,12951.0,65,1042.07,8,0
468,12952.0,80,1382.8400000000001,5,0
469,12953.0,17,329.85,9,0
470,12955.0,183,4734.26,0,2
471,12956.0,19,108.07,305,0
472,12957.0,244,3979.04,3,2
473,12962.0,16,266.39,6,0
474,12963.0,96,1841.03,7,2
475,12965.0,109,771.91,88,0
476,12966.0,10,160.18,9,0
477,12967.0,33,1194.75,2,0
478,12968.0,5,135.95,111,0
479,12970.0,151,452.24,6,0
480,12971.0,308,10930.26,3,1
481,12974.0,8,144.8,197,0
482,12976.0,22,738.6,211,0
483,12977.0,9,39.239999999999995,155,0
484,12980.0,24,7092.06,155,1
485,12981.0,20,372.21999999999997,29,0
486,12982.0,34,377.2,239,0
487,12984.0,4,97.5,18,0
488,12985.0,78,1215.6200000000001,0,0
489,12987.0,30,545.0,73,0
490,12988.0,92,535.32,291,0
491,12989.0,68,6854.51,2,1
492,12990.0,13,409.5,30,0
493,12991.0,31,503.76,22,0
494,12993.0,27,414.76,22,0
495,12994.0,73,902.22,3,0
496,12995.0,5,200.72,77,0
497,12997.0,67,1197.94,21,0
498,12999.0,28,455.88,195,0
499,13000.0,31,534.85,106,0
500,13001.0,342,9797.92,3,1
501,13002.0,7,120.94999999999999,317,0
502,13003.0,6,149.05,105,0
503,13004.0,409,5613.43,11,1
504,13005.0,29,468.95,173,0
505,13006.0,4,81.57,55,0
506,13008.0,15,178.46999999999997,322,0
507,13011.0,3,50.550000000000004,371,0
508,13012.0,107,1311.6200000000001,8,0
509,13013.0,222,4786.99,0,2
510,13014.0,124,3365.43,2,2
511,13015.0,176,3346.28,52,2
512,13016.0,47,789.89,72,0
513,13017.0,1,204.0,6,0
514,13018.0,459,7272.75,15,1
515,13021.0,134,2584.4,3,2
516,13023.0,40,689.9,63,0
517,13026.0,43,936.15,0,0
518,13027.0,26,6912.0,113,1
519,13028.0,47,659.68,22,0
520,13029.0,10,1247.5,30,0
521,13030.0,99,799.48,10,0
522,13032.0,75,996.52,38,0
523,13033.0,11,190.55,356,0
524,13034.0,37,642.77,54,0
525,13035.0,30,886.63,57,0
526,13037.0,48,881.07,137,0
527,13038.0,28,908.46,79,0
528,13040.0,43,676.99,8,0
529,13043.0,14,471.57,253,0
530,13044.0,33,560.47,290,0
531,13045.0,18,305.28000000000003,98,0
532,13046.0,35,629.31,30,0
533,13047.0,196,3079.1,31,2
534,13048.0,137,1805.91,13,2
535,13049.0,14,656.6800000000001,63,0
536,13050.0,422,5684.61,8,1
537,13052.0,18,348.15000000000003,211,0
538,13055.0,78,1201.96,63,0
539,13058.0,8,271.40000000000003,24,0
540,13059.0,8,183.4,249,0
541,13060.0,15,307.53,253,0
542,13061.0,10,248.61,71,0
543,13062.0,11,346.98,190,0
544,13064.0,69,1119.49,12,0
545,13065.0,14,205.86,372,0
546,13066.0,49,430.9,23,0
547,13067.0,15,115.46000000000001,81,0
548,13068.0,2,344.0,9,0
549,13069.0,470,3717.82,0,2
550,13070.0,9,228.8,191,0
551,13072.0,7,177.15,266,0
552,13075.0,22,919.61,129,0
553,13077.0,112,729.27,0,0
554,13078.0,380,12432.28,0,1
555,13079.0,6,220.10000000000002,3,0
556,13080.0,6,58.08,178,0
558,13082.0,75,3595.48,125,2
559,13083.0,18,303.75,3,0
560,13085.0,29,272.38,157,0
562,13090.0,161,8689.39,8,1
563,13091.0,24,319.82,20,0
564,13092.0,26,459.83,70,0
565,13093.0,170,7741.47,266,1
566,13094.0,30,1708.8600000000001,20,0
567,13095.0,6,74.39999999999999,70,0
568,13097.0,437,5893.32,32,1
570,13099.0,1,207.35999999999999,98,0
571,13101.0,8,101.19,233,0
572,13102.0,310,6336.29,0,1
573,13103.0,8,243.94,39,0
574,13104.0,20,1098.48,2,0
575,13106.0,2,59.5,128,0
576,13107.0,60,1524.07,43,0
577,13108.0,10,350.06,372,0
578,13109.0,50,766.84,2,0
579,13110.0,146,1452.8700000000001,30,0
580,13113.0,280,10510.0,0,1
581,13115.0,132,2205.63,8,2
582,13116.0,31,485.19,116,0
583,13117.0,76,984.91,21,0
584,13118.0,82,1125.0,19,0
585,13120.0,1,30.599999999999998,238,0
586,13121.0,53,254.73,268,0
587,13122.0,55,922.39,93,0
588,13124.0,235,3866.33,89,2
589,13126.0,142,2056.29,4,2
590,13127.0,15,259.17,77,0
591,13130.0,2,64.0,93,0
592,13131.0,46,1039.3,22,0
593,13132.0,3,77.3,261,0
594,13133.0,7,109.8,273,0
595,13134.0,105,1740.63,72,2
596,13135.0,1,3096.0,196,2
597,13136.0,139,2545.38,49,2
598,13137.0,705,3605.08,10,2
599,13138.0,63,962.39,21,0
600,13139.0,174,5055.79,15,2
601,13140.0,46,423.72,107,0
602,13141.0,136,2385.8,84,2
603,13142.0,23,307.09,18,0
604,13144.0,3,110.95,332,0
605,13145.0,7,614.77,39,0
606,13146.0,17,228.91,25,0
607,13147.0,4,712.8000000000001,9,0
608,13148.0,347,3348.48,28,2
609,13149.0,86,1676.06,13,0
610,13151.0,75,1250.3700000000001,202,0
611,13153.0,15,486.22,5,0
612,13155.0,85,971.76,32,0
613,13157.0,89,1721.57,48,2
614,13158.0,79,1201.06,94,0
615,13159.0,122,1379.75,8,0
616,13160.0,4,91.8,21,0
617,13161.0,8,112.75,312,0
618,13162.0,82,1644.99,121,0
619,13165.0,42,1021.48,45,0
620,13166.0,42,414.7,281,0
621,13167.0,65,791.33,18,0
622,13168.0,133,1310.14,35,0
623,13169.0,13,712.88,63,0
624,13170.0,32,116.00999999999999,26,0
625,13171.0,48,426.81,7,0
626,13173.0,43,353.65,3,0
627,13174.0,314,2817.03,15,2
628,13176.0,72,492.84,45,0
629,13177.0,17,282.45,64,0
630,13178.0,265,5725.47,25,1
631,13182.0,11,121.18,44,0
632,13183.0,94,3957.78,7,2
633,13184.0,183,1648.79,14,0
634,13185.0,1,71.4,267,0
635,13186.0,84,1539.69,39,0
636,13187.0,37,236.02,336,0
637,13188.0,2,114.60000000000001,10,0
638,13189.0,29,260.68,18,0
639,13192.0,63,911.94,94,0
640,13193.0,29,117.88,60,0
641,13194.0,3,60.7,135,0
642,13196.0,110,1797.78,10,2
643,13198.0,229,3384.09,9,2
644,13199.0,120,9803.96,3,1
645,13200.0,46,870.09,18,0
646,13203.0,57,869.46,9,0
647,13207.0,8,250.26000000000002,14,0
648,13208.0,150,1205.9,58,0
649,13209.0,329,5820.16,29,1
650,13210.0,22,353.48,93,0
651,13211.0,56,1197.42,9,0
652,13212.0,143,780.58,8,0
653,13213.0,92,1518.43,56,0
654,13216.0,5,333.74,267,0
655,13217.0,7,133.62,121,0
656,13218.0,5,62.63999999999999,126,0
657,13220.0,21,819.2900000000001,77,0
658,13221.0,66,847.41,239,0
659,13223.0,5,163.20000000000002,199,0
660,13224.0,109,2150.85,59,2
661,13225.0,34,6083.04,2,1
662,13226.0,16,108.21000000000001,272,0
663,13227.0,9,257.7,201,0
664,13228.0,2,358.0,80,0
665,13229.0,10,160.95,225,0
666,13230.0,612,2763.41,3,2
667,13232.0,207,1357.6,12,0
668,13233.0,43,605.12,73,0
669,13235.0,59,101.17000000000007,211,0
670,13236.0,39,727.27,24,0
671,13238.0,32,680.83,10,0
672,13239.0,22,329.56,261,0
673,13240.0,67,663.65,95,0
674,13242.0,13,270.40000000000003,111,0
675,13243.0,58,600.07,202,0
676,13244.0,27,121.74000000000001,92,0
677,13245.0,16,430.5,50,0
678,13246.0,143,1922.1,17,2
679,13247.0,25,501.12,17,0
680,13248.0,26,465.68,124,0
681,13249.0,23,711.41,91,0
682,13253.0,36,1030.4,156,0
683,13255.0,14,390.66,3,0
684,13258.0,38,698.58,11,0
685,13259.0,87,292.32,61,0
686,13260.0,8,557.62,60,0
687,13261.0,9,944.1,268,0
688,13262.0,11,200.29,262,0
690,13265.0,91,2107.66,52,2
691,13266.0,202,3717.67,10,2
692,13267.0,224,4404.44,2,2
693,13268.0,447,3167.64,17,2
694,13269.0,320,5315.92,0,1
695,13270.0,1,590.0,365,0
696,13271.0,101,178.26,36,0
697,13272.0,15,276.56,30,0
698,13273.0,16,138.98,112,0
699,13276.0,30,590.9300000000001,63,0
700,13277.0,8,258.4,15,0
701,13278.0,46,542.73,40,0
702,13279.0,11,126.30000000000001,63,0
703,13280.0,85,814.86,121,0
704,13282.0,40,1047.8400000000001,17,0
705,13283.0,7,93.66,59,0
706,13284.0,14,196.15,322,0
707,13285.0,187,2709.12,22,2
708,13291.0,42,361.11,155,0
709,13292.0,31,578.9399999999999,38,0
710,13294.0,54,873.74,189,0
711,13295.0,11,197.95000000000002,359,0
